Data from Subt6__3__16-26-38-426.txt Node

Date: Wed Oct 20 16:26:38 CEST 2021
User: Praktikum
Spectrometer: USB4F03543
Trigger mode: 4
Integration Time (sec): 1,000000E-1
Scans to average: 40
Electric dark correction enabled: true
Nonlinearity correction enabled: false
Boxcar width: 0
XAxis mode: Wavelengths
Number of Pixels in Spectrum: 3648
>>>>>Begin Spectral Data<<<<<
179,969	-20,09
180,181	-20,09
180,394	-20,09
180,606	5,35
180,819	-0,94
181,031	48,16
181,243	-31,46
181,456	-61,67
181,668	18,05
181,88	66,64
182,093	23,27
182,305	-17,48
182,518	-15,38
182,73	31,67
182,942	13,29
183,155	-47,33
183,367	-27,77
183,579	21,28
183,791	-6,11
184,004	42,88
184,216	32,44
184,428	23,53
184,641	21,28
184,853	66,08
185,065	13,24
185,277	-8,11
185,49	3,31
185,702	33,21
185,914	20,61
186,126	56,61
186,338	-51,53
186,551	38,28
186,763	-4,37
186,975	67,41
187,187	-15,07
187,399	32,64
187,612	50,72
187,824	5,15
188,036	23,22
188,248	25,12
188,46	32,75
188,672	-5,24
188,885	25,07
189,097	-7,45
189,309	23,58
189,521	3,2
189,733	5,76
189,945	44,37
190,157	26,91
190,369	24,76
190,581	69,76
190,794	56,5
191,006	33,77
191,218	39,56
191,43	11,7
191,642	27,68
191,854	53,58
192,066	20,15
192,278	10,27
192,49	40,58
192,702	-10,82
192,914	40,22
193,126	-32,89
193,338	34,9
193,55	50,21
193,762	21,89
193,974	84,82
194,186	3,72
194,398	18,05
194,61	-37,24
194,822	18,26
195,034	54,1
195,246	46,37
195,457	-3,14
195,669	33,87
195,881	44,83
196,093	46,72
196,305	77,7
196,517	39,45
196,729	7,4
196,941	-2,43
197,153	23,94
197,365	8,78
197,576	73,71
197,788	6,53
198	63,77
198,212	46,57
198,424	8,22
198,636	-3,09
198,847	27,63
199,059	14,88
199,271	32,39
199,483	46,21
199,695	4,28
199,906	45,29
200,118	31,16
200,33	36,02
200,542	7,66
200,753	2,9
200,965	37,56
201,177	33,92
201,389	0,8
201,6	52,3
201,812	18,82
202,024	33,16
202,235	41,35
202,447	24,5
202,659	-12,62
202,871	32,08
203,082	-11,9
203,294	55,17
203,506	32,23
203,717	9,4
203,929	-32,07
204,141	44,06
204,352	81,9
204,564	31,21
204,775	10,17
204,987	20,46
205,199	3,92
205,41	16,87
205,622	53,74
205,833	23,94
206,045	46,88
206,257	60,19
206,468	13,19
206,68	22,3
206,891	-1,81
207,103	56,91
207,314	37,66
207,526	25,27
207,737	48,62
207,949	21,84
208,16	30,14
208,372	29,93
208,583	5,41
208,795	-2,99
209,006	-18,66
209,218	9,25
209,429	84,15
209,641	24,66
209,852	-20,91
210,064	9,3
210,275	10,88
210,487	21,48
210,698	36,38
210,909	68,28
211,121	23,38
211,332	-9,44
211,544	8,12
211,755	58,6
211,966	13,03
212,178	22,86
212,389	36,33
212,6	32,9
212,812	79,24
213,023	34,74
213,234	3,77
213,446	48,21
213,657	87,53
213,868	-4,42
214,08	-19,22
214,291	64,34
214,502	54,1
214,714	34,08
214,925	-51,58
215,136	45,44
215,347	47,18
215,559	-26,34
215,77	52,46
215,981	5,46
216,192	47,7
216,404	11,14
216,615	61,62
216,826	21,64
217,037	25,58
217,249	34,23
217,46	11,81
217,671	93,98
217,882	-28,18
218,093	19,79
218,304	-14,2
218,516	60,65
218,727	59,47
218,938	22,92
219,149	23,02
219,36	24,4
219,571	23,99
219,782	41,19
219,993	52,92
220,205	6,33
220,416	-7,6
220,627	18
220,838	57,48
221,049	21,23
221,26	-10,11
221,471	11,81
221,682	4,07
221,893	-17,22
222,104	20,87
222,315	-10,06
222,526	16,93
222,737	36,18
222,948	24,35
223,159	38,74
223,37	56,96
223,581	-6,27
223,792	-5,04
224,003	46,16
224,214	43,4
224,425	58,45
224,636	9,3
224,847	34,95
225,058	89,42
225,269	45,44
225,48	42,53
225,691	26,76
225,902	85,28
226,112	27,37
226,323	38,63
226,534	57,07
226,745	55,12
226,956	-20,65
227,167	56,96
227,378	50,15
227,589	-8,57
227,799	39,97
228,01	89,37
228,221	19,49
228,432	-11,34
228,643	10,32
228,853	26,91
229,064	52,36
229,275	44,01
229,486	11,34
229,697	80,41
229,907	27,73
230,118	49,9
230,329	81,08
230,54	18,46
230,75	15,95
230,961	64,18
231,172	31,93
231,383	52,2
231,593	30,34
231,804	99,61
232,015	-6,73
232,225	65,72
232,436	48,11
232,647	33,67
232,857	58,45
233,068	-4,78
233,279	86,35
233,489	24,45
233,7	62,39
233,91	-14,56
234,121	-31,25
234,332	41,81
234,542	20,77
234,753	51,08
234,964	53,12
235,174	48,11
235,385	14,57
235,595	40,58
235,806	2,18
236,016	38,38
236,227	64,54
236,437	41,3
236,648	45,55
236,858	65
237,069	75,65
237,279	24,76
237,49	28,8
237,7	70,12
237,911	91,98
238,121	68,94
238,332	39,66
238,542	-4,58
238,753	38,84
238,963	100,43
239,174	87,99
239,384	53,99
239,595	37,56
239,805	32,08
240,015	39,91
240,226	89,42
240,436	89,83
240,647	70,28
240,857	7,25
241,067	32,23
241,278	57,94
241,488	119,99
241,698	7,45
241,909	67,66
242,119	22,2
242,329	73,14
242,54	15,29
242,75	33,41
242,96	47,44
243,171	22,2
243,381	25,58
243,591	15,59
243,801	30,9
244,012	65,82
244,222	65,97
244,432	60,19
244,642	30,34
244,853	33,97
245,063	17,64
245,273	82,87
245,483	51,69
245,694	65,16
245,904	41,04
246,114	61,21
246,324	30,29
246,534	0,49
246,744	82,77
246,955	59,16
247,165	76,42
247,375	84,87
247,585	34,9
247,795	69,35
248,005	-3,55
248,215	73,5
248,425	32,75
248,636	82
248,846	108,06
249,056	19,79
249,266	51,59
249,476	53,94
249,686	32,39
249,896	54,71
250,106	43,5
250,316	69,35
250,526	106,93
250,736	101,46
250,946	104,27
251,156	61,01
251,366	35,92
251,576	60,19
251,786	18,46
251,996	55,12
252,206	72,17
252,416	79,54
252,626	82,36
252,836	48,36
253,046	81,9
253,256	80,52
253,466	57,53
253,676	47,54
253,885	67,77
254,095	64,49
254,305	44,21
254,515	64,28
254,725	55,12
254,935	55,27
255,145	80,46
255,355	82,31
255,564	28,65
255,774	80,41
255,984	63,93
256,194	67,31
256,404	36,64
256,614	127
256,823	122,45
257,033	38,53
257,243	77,8
257,453	51,43
257,662	83,79
257,872	53,02
258,082	102,74
258,292	-10,77
258,501	26,86
258,711	82,46
258,921	31,57
259,131	68,38
259,34	72,07
259,55	63,41
259,76	18,41
259,969	74,12
260,179	91,06
260,389	65,92
260,598	73,96
260,808	68,18
261,018	62,39
261,227	98,23
261,437	44,73
261,647	27,01
261,856	81,08
262,066	63,82
262,275	120,25
262,485	76,47
262,694	85,38
262,904	63,93
263,114	61,98
263,323	89,63
263,533	57,83
263,742	121,32
263,952	70,84
264,161	68,84
264,371	96,18
264,58	61,26
264,79	4,64
264,999	76,78
265,209	46,62
265,418	5,51
265,628	85,07
265,837	54,81
266,047	33,16
266,256	71,15
266,466	37
266,675	64,85
266,884	28,04
267,094	117,69
267,303	116,2
267,513	30,54
267,722	72,73
267,931	71,71
268,141	70,68
268,35	48,16
268,559	44,16
268,769	61,98
268,978	66,13
269,187	27,73
269,397	74,63
269,606	23,84
269,815	40,63
270,025	37,3
270,234	90,86
270,443	95,62
270,653	37,51
270,862	25,48
271,071	27,37
271,28	90,45
271,49	44,11
271,699	45,8
271,908	86,51
272,117	74,47
272,327	26,14
272,536	40,17
272,745	49,18
272,954	45,6
273,163	1,72
273,372	58,65
273,582	15,34
273,791	39,66
274	75,91
274,209	70,99
274,418	78,67
274,627	29,26
274,836	70,12
275,046	57,53
275,255	50,61
275,464	120,19
275,673	39,25
275,882	63,57
276,091	17,28
276,3	49,74
276,509	57,88
276,718	62,29
276,927	-13,95
277,136	-11,75
277,345	2,23
277,554	35,05
277,763	26,45
277,972	-11,34
278,181	33,82
278,39	35,31
278,599	81,64
278,808	-0,99
279,017	65,21
279,226	54,1
279,435	33,1
279,644	37,15
279,853	65,16
280,062	55,84
280,271	-2,94
280,48	26,35
280,688	43,55
280,897	46,42
281,106	-6,57
281,315	36,59
281,524	28,45
281,733	-21,99
281,942	27,73
282,151	27,58
282,359	39,5
282,568	47,59
282,777	58,76
282,986	65,36
283,195	55,89
283,403	25,02
283,612	9,35
283,821	40,12
284,03	50,36
284,238	56,66
284,447	92,24
284,656	93,01
284,865	51,89
285,073	16
285,282	29,73
285,491	-36,58
285,699	-6,63
285,908	63,82
286,117	14,16
286,325	61,83
286,534	2,33
286,743	23,27
286,951	25,22
287,16	12,11
287,369	26,65
287,577	9,25
287,786	36,43
287,995	35
288,203	4,54
288,412	21,53
288,62	75,04
288,829	12,16
289,037	33,41
289,246	7,66
289,455	29,93
289,663	38,12
289,872	50,67
290,08	39,5
290,289	70,02
290,497	31,01
290,706	76,98
290,914	-7,39
291,123	-32,07
291,331	54,66
291,54	26,4
291,748	-44,31
291,957	22,15
292,165	12,62
292,373	59,16
292,582	9,45
292,79	-51,53
292,999	-32,79
293,207	7,76
293,415	47,8
293,624	37,81
293,832	62,9
294,041	-4,78
294,249	82,67
294,457	-0,89
294,666	28,29
294,874	19,33
295,082	37,1
295,291	18,82
295,499	43,45
295,707	28,65
295,915	39,97
296,124	13,44
296,332	69,97
296,54	3,36
296,749	46,21
296,957	23,53
297,165	58,81
297,373	57,58
297,581	13,75
297,79	15,08
297,998	16,93
298,206	-1,1
298,414	15,7
298,622	11,6
298,831	30,9
299,039	35,2
299,247	12,88
299,455	74,83
299,663	68,59
299,871	23,02
300,08	17,74
300,288	35,82
300,496	32,34
300,704	34,9
300,912	52,2
301,12	21,43
301,328	9,19
301,536	44,27
301,744	31,62
301,952	52,61
302,16	46,11
302,368	2,64
302,576	21,18
302,784	41,09
302,992	12,01
303,2	9,96
303,408	59,06
303,616	63,11
303,824	56,71
304,032	100,59
304,24	88,76
304,448	93,67
304,656	59,47
304,864	105,55
305,072	5
305,28	72,68
305,488	32,85
305,696	64,69
305,904	0,13
306,111	36,89
306,319	35,87
306,527	28,6
306,735	43,6
306,943	-3,2
307,151	25,07
307,359	33,21
307,566	37,1
307,774	75,6
307,982	59,06
308,19	23,17
308,398	46,31
308,605	67,2
308,813	22,92
309,021	76,01
309,229	54,92
309,436	51,02
309,644	18,31
309,852	67,25
310,06	69,05
310,267	-5,5
310,475	31,72
310,683	-8,83
310,89	71,66
311,098	4,79
311,306	28,39
311,513	17,18
311,721	38,38
311,929	19,18
312,136	22,61
312,344	72,99
312,552	51,64
312,759	18,1
312,967	48,31
313,174	6,28
313,382	-9,7
313,589	-30,23
313,797	12,57
314,005	36,94
314,212	53,28
314,42	48,93
314,627	-3,5
314,835	37,92
315,042	49,69
315,25	52,36
315,457	8,68
315,665	23,43
315,872	57,07
316,08	51,13
316,287	42,99
316,495	35,2
316,702	88,04
316,909	31,06
317,117	25,99
317,324	16
317,532	-6,68
317,739	75,09
317,946	33,67
318,154	20,25
318,361	-3,04
318,569	36,84
318,776	20,25
318,983	47,59
319,191	5,56
319,398	18,15
319,605	12,16
319,813	31,41
320,02	84,25
320,227	29,83
320,434	25,22
320,642	84,25
320,849	41,96
321,056	65,21
321,264	37,05
321,471	70,33
321,678	75,7
321,885	7,5
322,092	25,48
322,3	26,91
322,507	38,12
322,714	60,39
322,921	34,85
323,128	51,02
323,336	24,35
323,543	47,08
323,75	-1,4
323,957	12,16
324,164	66,79
324,371	48,26
324,578	-6,88
324,786	49,95
324,993	31,88
325,2	7,45
325,407	45,49
325,614	59,16
325,821	32,64
326,028	0,34
326,235	35,1
326,442	11,65
326,649	23,63
326,856	24,76
327,063	30,8
327,27	41,96
327,477	51,49
327,684	-11,9
327,891	37,35
328,098	97,15
328,305	163,46
328,512	275,69
328,719	420,63
328,926	652,15
329,133	905,44
329,34	1382,77
329,546	2167,55
329,753	3331,77
329,96	4233,64
330,167	4364,35
330,374	4191,91
330,581	3518,95
330,788	2089,83
330,995	937,59
331,201	404,76
331,408	193,67
331,615	75,19
331,822	69,4
332,029	67,66
332,235	31,16
332,442	61,72
332,649	72,63
332,856	38,74
333,062	48,98
333,269	42,99
333,476	47,54
333,683	53,23
333,889	68,94
334,096	60,14
334,303	60,29
334,509	84,46
334,716	50,97
334,923	10,17
335,129	18,67
335,336	48,72
335,543	60,39
335,749	30,19
335,956	28,24
336,163	49,08
336,369	58,7
336,576	51,95
336,782	23,74
336,989	24,61
337,196	33,21
337,402	54,56
337,609	25,12
337,815	88,19
338,022	70,68
338,228	44,57
338,435	-9,54
338,641	65
338,848	16,67
339,054	66,13
339,261	58,45
339,467	50,97
339,674	59,57
339,88	37,15
340,087	37,1
340,293	65,41
340,5	81,33
340,706	75,6
340,912	28,7
341,119	16,26
341,325	24,61
341,532	114
341,738	53,89
341,944	89,47
342,151	45,9
342,357	45,65
342,563	110,01
342,77	50,82
342,976	44,32
343,182	43,04
343,389	79,9
343,595	48,21
343,801	75,55
344,007	26,65
344,214	28,96
344,42	31,52
344,626	49,23
344,832	74,17
345,039	34,9
345,245	98,69
345,451	73,96
345,657	54,97
345,864	74,22
346,07	96,85
346,276	24,76
346,482	43,04
346,688	85,48
346,894	57,78
347,1	61,72
347,307	33,82
347,513	7,56
347,719	62,54
347,925	11,5
348,131	55,02
348,337	44,32
348,543	64,44
348,749	20,2
348,955	11,09
349,161	24,66
349,367	58,86
349,573	73,5
349,779	48,26
349,985	67,61
350,191	78,83
350,397	62,08
350,603	59,52
350,809	114,1
351,015	89,07
351,221	34,28
351,427	32,69
351,633	80,87
351,839	99,36
352,045	81,28
352,251	56,04
352,457	75,34
352,663	44,16
352,869	101,25
353,075	33,31
353,28	100,07
353,486	87,02
353,692	69,1
353,898	82,31
354,104	115,59
354,31	46,62
354,515	62,75
354,721	21,58
354,927	40,63
355,133	48,82
355,339	51,43
355,544	75,6
355,75	52,61
355,956	71,2
356,162	64,95
356,367	88,81
356,573	90,45
356,779	33,1
356,984	85,02
357,19	74,47
357,396	76,78
357,602	107,09
357,807	48,26
358,013	128,85
358,218	129,31
358,424	124,19
358,63	80
358,835	160,03
359,041	87,22
359,247	102,89
359,452	54,97
359,658	62,54
359,863	84,41
360,069	26,14
360,274	89,83
360,48	33,05
360,685	65,87
360,891	37,25
361,097	91,93
361,302	116,92
361,508	98,18
361,713	15,29
361,918	14,88
362,124	39,71
362,329	73,91
362,535	67,77
362,74	79,85
362,946	40,43
363,151	61,57
363,357	42,63
363,562	91,93
363,767	54,51
363,973	53,43
364,178	113,79
364,383	49,74
364,589	-32,48
364,794	89,94
365	72,37
365,205	118,35
365,41	84,2
365,615	84,3
365,821	26,35
366,026	8,22
366,231	72,68
366,437	97,77
366,642	97,1
366,847	91,27
367,052	62,8
367,258	79,8
367,463	75,96
367,668	107,34
367,873	19,95
368,078	83,28
368,284	96,9
368,489	76,73
368,694	52,36
368,899	135,71
369,104	66,84
369,309	68,48
369,515	26,04
369,72	14,52
369,925	55,43
370,13	81,39
370,335	28,55
370,54	59,98
370,745	55,84
370,95	44,27
371,155	45,29
371,36	16,21
371,565	75,6
371,77	92,96
371,975	38,58
372,18	46,52
372,385	133,25
372,59	104,83
372,795	43,75
373	40,22
373,205	19,74
373,41	45,9
373,615	63,11
373,82	65,67
374,025	100,53
374,23	31,26
374,435	49,39
374,64	96,23
374,845	95,62
375,05	91,78
375,254	69,1
375,459	84,35
375,664	51,18
375,869	65,97
376,074	54,35
376,279	44,42
376,483	92,44
376,688	69,25
376,893	95,67
377,098	73,35
377,303	52,2
377,507	121,32
377,712	35,72
377,917	56,04
378,122	52,56
378,326	67,92
378,531	91,01
378,736	97,31
378,94	78,93
379,145	62,8
379,35	52,51
379,554	93,93
379,759	84,41
379,964	89,88
380,168	72,37
380,373	75,34
380,578	27,93
380,782	88,91
380,987	14,06
381,191	62,19
381,396	12,16
381,601	69,2
381,805	55,07
382,01	82,15
382,214	57,42
382,419	87,73
382,623	79,64
382,828	74,58
383,032	77,75
383,237	51,59
383,441	31,77
383,646	70,17
383,85	76,37
384,055	67,15
384,259	82,36
384,464	64,08
384,668	106,52
384,872	88,91
385,077	56,91
385,281	-2,02
385,486	24,14
385,69	89,27
385,894	39,45
386,099	66,23
386,303	59,42
386,507	81,69
386,712	71,25
386,916	68,89
387,12	78,26
387,325	85,89
387,529	93,62
387,733	61,47
387,937	85,58
388,142	86,66
388,346	80,21
388,55	88,91
388,754	63,77
388,959	15,65
389,163	61,21
389,367	68,89
389,571	71,61
389,775	54,15
389,98	80,62
390,184	61,57
390,388	79,9
390,592	33,21
390,796	2,74
391	15,75
391,204	33,87
391,409	69,25
391,613	86,25
391,817	54,56
392,021	94,54
392,225	57,99
392,429	89,32
392,633	71,71
392,837	112,41
393,041	113,49
393,245	93,11
393,449	106,58
393,653	79,49
393,857	46,16
394,061	115,48
394,265	68,64
394,469	68,12
394,673	62,95
394,877	55,89
395,081	61,37
395,285	76,01
395,489	31,82
395,693	87,38
395,896	42,73
396,1	90,65
396,304	51,33
396,508	111,64
396,712	93,26
396,916	45,34
397,12	49,54
397,323	71,45
397,527	41,14
397,731	94,13
397,935	67,61
398,139	78,52
398,342	51,13
398,546	46,52
398,75	49,8
398,954	15,29
399,157	63,47
399,361	33
399,565	84,25
399,769	63,57
399,972	63,36
400,176	7,25
400,38	42,06
400,583	76,62
400,787	99,15
400,991	91,93
401,194	52,3
401,398	78,83
401,601	34,54
401,805	16,62
402,009	70,07
402,212	108,62
402,416	68,53
402,619	63,47
402,823	86,61
403,026	93,21
403,23	42,58
403,433	138,22
403,637	125,98
403,841	122,24
404,044	149,48
404,247	111,75
404,451	128,69
404,654	77,7
404,858	94,19
405,061	35,82
405,265	89,17
405,468	31,47
405,672	81,03
405,875	39,97
406,078	104,68
406,282	130,38
406,485	60,75
406,689	48,05
406,892	70,43
407,095	38,22
407,299	42,22
407,502	96,59
407,705	81,49
407,909	34,28
408,112	93,06
408,315	91,27
408,518	73,91
408,722	134,07
408,925	23,12
409,128	123,52
409,331	38,84
409,535	63,52
409,738	113,95
409,941	106,37
410,144	59,57
410,347	43,7
410,551	125,47
410,754	112,82
410,957	101,56
411,16	77,49
411,363	68,48
411,566	109,95
411,769	109,95
411,973	79,13
412,176	65,82
412,379	105,71
412,582	58,91
412,785	44,68
412,988	89,47
413,191	80,05
413,394	108,11
413,597	51,84
413,8	23,43
414,003	99,36
414,206	86,76
414,409	113,44
414,612	115,23
414,815	182,81
415,018	218,09
415,221	240,15
415,424	249,27
415,627	249,27
415,83	207,9
416,033	197,81
416,235	160,23
416,438	75,75
416,641	90,75
416,844	91,32
417,047	50,46
417,25	109,14
417,453	150,91
417,655	103,09
417,858	159,26
418,061	156,55
418,264	124,7
418,467	158,18
418,669	198,27
418,872	193,41
419,075	274,56
419,278	303,23
419,48	270,31
419,683	324,48
419,886	213,27
420,089	225,92
420,291	204,31
420,494	95,77
420,697	93,98
420,899	39,91
421,102	82,26
421,305	52,36
421,507	87,68
421,71	95,16
421,912	55,58
422,115	72,99
422,318	102,43
422,52	88,86
422,723	108,11
422,925	72,22
423,128	61,98
423,33	99,51
423,533	40,43
423,735	79,18
423,938	47,08
424,14	117,89
424,343	75,91
424,545	90,09
424,748	67,51
424,95	165,86
425,153	109,8
425,355	153,88
425,558	111,08
425,76	99,71
425,962	162,28
426,165	129,97
426,367	202,32
426,57	180,51
426,772	169,6
426,974	141,39
427,177	135,81
427,379	116,35
427,581	78,67
427,784	79,13
427,986	127,98
428,188	137,19
428,39	77,24
428,593	133,56
428,795	100,74
428,997	130,02
429,2	93,21
429,402	102,38
429,604	144,41
429,806	108,98
430,008	72,63
430,211	105,3
430,413	86,45
430,615	77,34
430,817	77,7
431,019	126,24
431,221	110,16
431,423	83,95
431,626	84,2
431,828	119,63
432,03	53,43
432,232	125,67
432,434	110,98
432,636	124,14
432,838	131,51
433,04	148,35
433,242	121,58
433,444	141,54
433,646	113,59
433,848	116,97
434,05	91,42
434,252	114,1
434,454	85,74
434,656	84,46
434,858	101,3
435,06	99,31
435,262	86,51
435,464	96,34
435,666	109,24
435,868	135,55
436,07	84,3
436,271	89,88
436,473	77,14
436,675	118,3
436,877	104,68
437,079	111,75
437,281	64,23
437,482	61,01
437,684	124,5
437,886	126,8
438,088	131,82
438,29	124,5
438,491	111,39
438,693	65,82
438,895	120,14
439,097	118,71
439,298	97,41
439,5	111,23
439,702	73,71
439,903	72,22
440,105	77,65
440,307	99,66
440,508	120,6
440,71	135,3
440,912	123,52
441,113	80,82
441,315	109,65
441,517	48,11
441,718	127,98
441,92	74,17
442,121	118,15
442,323	101,87
442,524	74,78
442,726	88,55
442,928	90,55
443,129	92,7
443,331	123,27
443,532	84,92
443,734	140,42
443,935	88,5
444,136	93,47
444,338	87,58
444,539	87,17
444,741	81,59
444,942	88,19
445,144	99,31
445,345	99,2
445,546	108,98
445,748	65,05
445,949	105,24
446,151	102,53
446,352	63
446,553	65,16
446,755	86,56
446,956	135,2
447,157	115,23
447,359	81,69
447,56	55,33
447,761	71,76
447,962	43,86
448,164	113,69
448,365	130,69
448,566	181,22
448,767	146,82
448,969	182,25
449,17	135,3
449,371	143,34
449,572	167,14
449,773	121,32
449,974	132,33
450,176	155,06
450,377	98,95
450,578	190,7
450,779	184,81
450,98	148,61
451,181	90,75
451,382	97,72
451,583	104,89
451,784	144,1
451,986	129,67
452,187	118,66
452,388	63,06
452,589	102,89
452,79	114,2
452,991	102,89
453,192	135,14
453,393	129
453,594	88,86
453,795	125,52
453,995	181,68
454,196	118,2
454,397	152,19
454,598	193,72
454,799	150,97
455	142,36
455,201	201,75
455,402	182,3
455,603	118,97
455,804	117,84
456,004	97,67
456,205	132,84
456,406	119,58
456,607	99,92
456,808	108,62
457,008	137,76
457,209	145,79
457,41	96,69
457,611	102,99
457,811	131,05
458,012	114,41
458,213	129,97
458,414	77,08
458,614	85,12
458,815	102,53
459,016	133,92
459,216	158,65
459,417	144,92
459,618	101,1
459,818	112,77
460,019	93,06
460,22	145,33
460,42	119,17
460,621	111,95
460,821	147,33
461,022	125,16
461,223	75,8
461,423	143,03
461,624	112,87
461,824	74,01
462,025	119,48
462,225	77,55
462,426	86,45
462,626	98,38
462,827	164,48
463,027	119,43
463,228	99,36
463,428	166,68
463,628	122,45
463,829	128,95
464,029	99,77
464,23	125,98
464,43	118,97
464,63	58,55
464,831	114,15
465,031	87,84
465,231	188,03
465,432	215,99
465,632	297,75
465,832	257,92
466,033	375,32
466,233	432,66
466,433	289,36
466,634	307,94
466,834	263,09
467,034	220,8
467,234	192,08
467,435	190,23
467,635	146,2
467,835	114,61
468,035	125,11
468,235	141,44
468,436	118,61
468,636	132,23
468,836	148,71
469,036	163,71
469,236	104,78
469,436	102,53
469,636	140,47
469,836	129,1
470,037	99,31
470,237	120,25
470,437	167,5
470,637	111,18
470,837	116
471,037	138,88
471,237	104,63
471,437	75,14
471,637	99,15
471,837	103,09
472,037	103,04
472,237	106,68
472,437	154,81
472,637	115,69
472,837	121,17
473,036	116,2
473,236	153,37
473,436	144
473,636	149,22
473,836	151,73
474,036	193,77
474,236	229,4
474,436	204,78
474,635	191,36
474,835	191,92
475,035	193,41
475,235	115,28
475,435	174,06
475,634	149,84
475,834	184,86
476,034	100,59
476,234	107,6
476,433	101,4
476,633	134,89
476,833	126,8
477,033	51,23
477,232	152,91
477,432	140,67
477,632	111,9
477,831	151,22
478,031	163,46
478,231	122,75
478,43	152,14
478,63	131,51
478,829	145,85
479,029	116,66
479,229	130,54
479,428	139,29
479,628	127,67
479,827	170,57
480,027	88,4
480,226	163,36
480,426	144,92
480,625	141,65
480,825	105,4
481,024	147,23
481,224	141,08
481,423	88,09
481,623	134,22
481,822	89,27
482,021	81,18
482,221	166,73
482,42	98,08
482,62	193,56
482,819	108,98
483,018	153,78
483,218	157,42
483,417	128,23
483,616	145,64
483,816	160,59
484,015	182,3
484,214	94,34
484,414	97,15
484,613	150,35
484,812	179,43
485,011	161,77
485,211	137,09
485,41	149,17
485,609	116,51
485,808	176,67
486,008	156,65
486,207	124,65
486,406	127,82
486,605	149,79
486,804	167,86
487,003	169,81
487,203	169,19
487,402	172,88
487,601	170,06
487,8	179,43
487,999	186,7
488,198	182,3
488,397	193,1
488,596	197,97
488,795	161,56
488,994	172,78
489,193	206
489,392	157,98
489,591	134,17
489,79	121,01
489,989	159,87
490,188	151,84
490,387	98,43
490,586	132,02
490,785	151,94
490,984	145,13
491,183	183,63
491,382	180,51
491,581	178,1
491,779	174,93
491,978	174,41
492,177	254,29
492,376	285,36
492,575	265,4
492,774	296,01
492,972	261,76
493,171	221,01
493,37	189,01
493,569	141,19
493,768	159,05
493,966	132,79
494,165	181,68
494,364	178,92
494,563	125,47
494,761	169,4
494,96	153,06
495,159	161,1
495,357	140,06
495,556	156,75
495,755	250,45
495,953	333,85
496,152	476,64
496,35	816,4
496,549	1232,5
496,748	1838,29
496,946	2564,04
497,145	3376,72
497,343	3716,68
497,542	3657,39
497,74	3297,52
497,939	2814,71
498,137	2059,47
498,336	1558,48
498,534	1158,46
498,733	903,8
498,931	635,26
499,13	459,29
499,328	356,07
499,527	234,68
499,725	224,13
499,924	192,44
500,122	208
500,32	196,02
500,519	165,71
500,717	179,07
500,915	154,4
501,114	182,4
501,312	158,18
501,51	149,28
501,709	188,29
501,907	196,28
502,105	134,74
502,304	168,58
502,502	188,03
502,7	152,04
502,898	149,48
503,097	186,04
503,295	203,75
503,493	156,9
503,691	219,16
503,889	200,27
504,088	170,52
504,286	220,19
504,484	213,63
504,682	163,97
504,88	187,42
505,078	191,67
505,276	161,72
505,474	180,66
505,672	87,12
505,871	143,69
506,069	187,06
506,267	197,25
506,465	191,72
506,663	131,61
506,861	161,21
507,059	182,25
507,257	145,18
507,455	155,16
507,653	197,81
507,851	206,31
508,049	136,17
508,246	180,76
508,444	158,59
508,642	123,62
508,84	176,46
509,038	224,08
509,236	194,59
509,434	222,49
509,632	166,12
509,829	256,23
510,027	180,71
510,225	203,39
510,423	170,01
510,621	177,33
510,818	177,74
511,016	183,84
511,214	159,87
511,412	164,84
511,609	130,59
511,807	182,91
512,005	161,05
512,203	198,22
512,4	190,39
512,598	199,86
512,796	257,31
512,993	192,13
513,191	281,37
513,389	368,97
513,586	484,02
513,784	715,69
513,981	878,2
514,179	1033,49
514,377	1170,44
514,574	1136,24
514,772	1045,36
514,969	879,94
515,167	674,27
515,364	567,21
515,562	495,79
515,759	360,17
515,957	319
516,154	306,97
516,352	293,66
516,549	214,04
516,746	206,72
516,944	214,45
517,141	144,21
517,339	137,5
517,536	226,43
517,733	221,57
517,931	231,19
518,128	193,56
518,325	255,21
518,523	173,03
518,72	196,12
518,917	238,93
519,115	146,2
519,312	206,93
519,509	206,93
519,707	230,68
519,904	189,36
520,101	244,81
520,298	242,1
520,495	259,87
520,693	151,89
520,89	216,91
521,087	209,28
521,284	249,27
521,481	255,36
521,678	274,87
521,876	176,67
522,073	235,96
522,27	234,83
522,467	214,2
522,664	223,1
522,861	195,51
523,058	231,91
523,255	240,87
523,452	260,69
523,649	196,43
523,846	235,24
524,043	192,03
524,24	288,18
524,437	253,21
524,634	268,52
524,831	212,3
525,028	234,62
525,225	220,54
525,422	250,5
525,619	213,17
525,816	237,8
526,013	225,92
526,209	209,28
526,406	242,41
526,603	205,9
526,8	230,12
526,997	250,5
527,194	205,03
527,39	268,21
527,587	231,14
527,784	213,43
527,981	183,63
528,177	242,66
528,374	205,59
528,571	227,56
528,768	193,87
528,964	187,83
529,161	241,84
529,358	221,11
529,554	215,48
529,751	239,08
529,948	245,79
530,144	227,35
530,341	268,21
530,537	194,69
530,734	271,28
530,931	225,15
531,127	228,74
531,324	226,33
531,52	228,28
531,717	252,08
531,913	249,37
532,11	259,71
532,306	232,47
532,503	231,09
532,699	272,51
532,896	277,94
533,092	220,8
533,289	221,42
533,485	194,59
533,682	227,35
533,878	252,29
534,074	284,24
534,271	230,12
534,467	213,17
534,664	259,05
534,86	268,62
535,056	230,02
535,253	263,81
535,449	270,26
535,645	258,38
535,841	260,79
536,038	319,05
536,234	227,76
536,43	294,32
536,626	267,39
536,823	272,51
537,019	260,07
537,215	264,22
537,411	286,95
537,607	262,22
537,804	270,67
538	328,68
538,196	284,34
538,392	260,48
538,588	277,02
538,784	243,28
538,98	283,37
539,176	314,14
539,373	222,08
539,569	243,48
539,765	229,66
539,961	257,92
540,157	340,5
540,353	270,21
540,549	268,88
540,745	268,36
540,941	257,41
541,137	266,21
541,333	292,94
541,528	282,8
541,724	305,38
541,92	325,5
542,116	300,67
542,312	314,8
542,508	232,47
542,704	275,64
542,9	234,32
543,096	305,38
543,291	292,28
543,487	297,34
543,683	285,72
543,879	313,11
544,075	261,56
544,27	311,88
544,466	308,61
544,662	336,77
544,858	322,53
545,053	335,85
545,249	290,64
545,445	281,88
545,64	267,19
545,836	334,41
546,032	304,2
546,227	347,93
546,423	317,41
546,619	359,35
546,814	314,03
547,01	326,78
547,205	350,59
547,401	335,38
547,597	320,33
547,792	323,15
547,988	321,97
548,183	338,46
548,379	349,26
548,574	393,85
548,77	350,44
548,965	363,34
549,161	316,9
549,356	363,95
549,552	346,8
549,747	371,68
549,942	361,29
550,138	322,64
550,333	350,08
550,529	406,19
550,724	334,05
550,919	356,02
551,115	412,85
551,31	380,7
551,505	426,11
551,701	439,83
551,896	451,86
552,091	445,16
552,287	425,5
552,482	479,31
552,677	421,4
552,872	404,91
553,067	445,77
553,263	438,4
553,458	440,55
553,653	502,86
553,848	470,91
554,043	438,65
554,239	448,28
554,434	503,73
554,629	457,29
554,824	485,6
555,019	491,8
555,214	511,41
555,409	482,79
555,604	488,62
555,799	510,08
555,994	475,82
556,189	494,46
556,384	429,85
556,579	496,1
556,774	503,11
556,969	482,22
557,164	511,2
557,359	500,76
557,554	534,14
557,749	489,44
557,944	476,44
558,139	507,36
558,334	508,13
558,529	580,48
558,724	506,13
558,918	587,9
559,113	508,34
559,308	570,95
559,503	600,44
559,698	569,88
559,893	627,12
560,087	603,62
560,282	677,7
560,477	644,42
560,672	698,13
560,866	685,95
561,061	642,63
561,256	745,18
561,45	704,07
561,645	683,39
561,84	718,97
562,034	736,43
562,229	720,81
562,424	797,87
562,618	871,7
562,813	905,39
563,008	957,05
563,202	986,79
563,397	1095,18
563,591	1191,49
563,786	1212,38
563,98	1298,75
564,175	1326,91
564,369	1342,42
564,564	1286,51
564,758	1284,31
564,953	1283,54
565,147	1327,42
565,342	1280,88
565,536	1329,21
565,731	1301,72
565,925	1454,39
566,119	1787,29
566,314	2696,28
566,508	4500,19
566,703	7957
566,897	13625,32
567,091	19845,26
567,286	26704,31
567,48	34528,53
567,674	38135,51
567,868	38046,07
568,063	34892,71
568,257	31190,85
568,451	24586,77
568,646	19154,68
568,84	15666,12
569,034	12875
569,228	10309,5
569,422	8103,94
569,616	6037,65
569,811	4488,67
570,005	3305,2
570,199	2509,46
570,393	2043,19
570,587	1808,85
570,781	1597,04
570,975	1454,55
571,169	1442,52
571,364	1437,96
571,558	1356,96
571,752	1369,35
571,946	1331,98
572,14	1438,57
572,334	1382,31
572,528	1401,66
572,722	1417,22
572,916	1474,52
573,109	1405,04
573,303	1516,14
573,497	1516,09
573,691	1494,13
573,885	1526,33
574,079	1552,08
574,273	1561,04
574,467	1527,2
574,661	1597,65
574,854	1592,84
575,048	1638,76
575,242	1655,4
575,436	1667,43
575,63	1721,76
575,823	1715,72
576,017	1813,76
576,211	1864,3
576,405	1887,85
576,598	1884,26
576,792	1920,05
576,986	1961,63
577,18	1988,35
577,373	1971,3
577,567	2061,52
577,761	2094,9
577,954	2180,81
578,148	2253,41
578,341	2219,87
578,535	2309,58
578,729	2371,48
578,922	2420,47
579,116	2495,43
579,309	2464,5
579,503	2551,95
579,696	2585,54
579,89	2679,34
580,083	2756,6
580,277	2863,91
580,47	3047,25
580,664	3768,5
580,857	4673,9
581,051	5611,46
581,244	6692,48
581,437	7892,29
581,631	8770,81
581,824	9018,67
582,018	9009,04
582,211	9108,42
582,404	8646,04
582,598	7836,28
582,791	7254,5
582,984	6741,64
583,178	6405,82
583,371	5989,01
583,564	5805,2
583,757	5833,41
583,951	5926,19
584,144	6151,21
584,337	6402,39
584,53	6829,34
584,723	7104,33
584,917	7664,3
585,11	8088,89
585,303	8803,74
585,496	9442,55
585,689	10572,26
585,882	11848,71
586,075	13806,62
586,268	60342,61
586,462	62994,68
586,655	63306,94
586,848	64318,89
587,041	64327,09
587,234	64282,03
587,427	64175,54
587,62	64180,66
587,813	64081,33
588,006	63995,32
588,199	63946,16
588,392	63920,56
588,585	64015,8
588,777	63948,21
588,97	64012,72
589,163	64034,23
589,356	64111,03
589,549	64225,71
589,742	64257,46
589,935	64320,94
590,128	64294,32
590,32	64256,43
590,513	64294,32
590,706	64317,87
590,899	64358,83
591,092	64259,5
591,284	64290,22
591,477	64342,45
591,67	64336,3
591,863	64305,58
592,055	64386,48
592,248	64252,34
592,441	64288,18
592,633	64298,42
592,826	64339,37
593,019	64352,69
593,211	64270,77
593,404	64379,31
593,596	64328,11
593,789	64331,18
593,982	64304,56
594,174	64331,18
594,367	64324,01
594,559	64305,58
594,752	64340,4
594,944	64321,97
595,137	64307,63
595,329	64291,25
595,522	64297,39
595,714	64311,73
595,907	64311,73
596,099	64348,59
596,292	64335,28
596,484	64362,93
596,676	64386,48
596,869	64347,57
597,061	64288,18
597,253	64392,62
597,446	64287,15
597,638	64330,16
597,83	64332,21
598,023	64220,59
598,215	64329,13
598,407	64251,31
598,6	64371,12
598,792	64299,44
598,984	64339,37
599,176	64312,75
599,369	64229,81
599,561	64282,03
599,753	64314,8
599,945	64276,91
600,137	64306,61
600,329	64252,34
600,522	64346,54
600,714	64383,41
600,906	64387,5
601,098	64262,58
601,29	64329,13
601,482	64267,7
601,674	64318,89
601,866	64319,92
602,058	64309,68
602,25	64318,89
602,442	64273,84
602,634	64354,73
602,826	64367,02
603,018	64358,83
603,21	64344,49
603,402	64281,01
603,594	64292,27
603,786	64327,09
603,978	64268,72
604,17	64338,35
604,362	64225,71
604,554	64287,15
604,745	64321,97
604,937	64338,35
605,129	64267,7
605,321	64347,57
605,513	64344,49
605,704	64306,61
605,896	64297,39
606,088	64351,66
606,28	64341,42
606,471	64277,94
606,663	64336,3
606,855	64385,45
607,047	64297,39
607,238	64346,54
607,43	64315,82
607,622	64274,86
607,813	64298,42
608,005	64335,28
608,197	64283,06
608,388	64348,59
608,58	64349,61
608,771	64305,58
608,963	64290,22
609,154	64361,9
609,346	64255,41
609,537	64299,44
609,729	64371,12
609,921	64316,85
610,112	64276,91
610,303	64295,34
610,495	64301,49
610,686	64303,54
610,878	64351,66
611,069	64396,72
611,261	64288,18
611,452	64340,4
611,643	64338,35
611,835	64341,42
612,026	64277,94
612,217	64272,82
612,409	64360,88
612,6	64327,09
612,791	64296,37
612,983	64278,96
613,174	64213,42
613,365	64268,72
613,557	64256,43
613,748	64358,83
613,939	64288,18
614,13	64315,82
614,321	64343,47
614,513	64257,46
614,704	64244,14
614,895	64281,01
615,086	64359,85
615,277	64308,65
615,468	64345,52
615,659	64235,95
615,851	64326,06
616,042	64274,86
616,233	64279,98
616,424	64326,06
616,615	64273,84
616,806	64379,31
616,997	64420,27
617,188	64387,5
617,379	64287,15
617,57	64313,77
617,761	64290,22
617,952	64271,79
618,143	64224,69
618,334	64355,76
618,524	64300,46
618,715	64338,35
618,906	64354,73
619,097	64336,3
619,288	64330,16
619,479	64311,73
619,67	64290,22
619,86	64410,03
620,051	64337,33
620,242	64270,77
620,433	64332,21
620,624	64248,24
620,814	64329,13
621,005	64284,08
621,196	64332,21
621,386	64324,01
621,577	64355,76
621,768	64268,72
621,958	64389,55
622,149	64354,73
622,34	64351,66
622,53	64301,49
622,721	64374,19
622,912	64282,03
623,102	64288,18
623,293	64240,05
623,483	64319,92
623,674	64285,1
623,864	64311,73
624,055	64329,13
624,245	64299,44
624,436	64331,18
624,626	64345,52
624,817	64269,74
625,007	64343,47
625,198	64356,78
625,388	32092,98
625,579	64252,34
625,769	995,65
625,959	60979,68
626,15	906,67
626,34	1002,82
626,531	942,2
626,721	897,45
626,911	827,72
627,101	884,45
627,292	880,35
627,482	825,46
627,672	813,43
627,863	885,21
628,053	822,39
628,243	844,36
628,433	809,9
628,623	854,24
628,814	890,79
629,004	884,39
629,194	845,23
629,384	806,98
629,574	811,38
629,764	848,4
629,955	797,51
630,145	808,82
630,335	760,59
630,525	752,61
630,715	758,14
630,905	788,09
631,095	777,34
631,285	764,59
631,475	757,42
631,665	768,53
631,855	747,28
632,045	787,37
632,235	708,22
632,425	767,81
632,615	701,31
632,805	741,8
632,994	777,34
633,184	749,23
633,374	753,89
633,564	738,17
633,754	732,23
633,944	691,37
634,133	747,08
634,323	750,51
634,513	701,97
634,703	669,1
634,893	723,22
635,082	711,24
635,272	696,65
635,462	705,66
635,651	664,9
635,841	726,7
636,031	674,73
636,221	666,13
636,41	644,68
636,6	660,65
636,789	690,86
636,979	659,32
637,169	684,97
637,358	668,54
637,548	599,98
637,737	655,43
637,927	688,15
638,116	648,67
638,306	633,52
638,495	697
638,685	628,3
638,874	664,24
639,064	609,71
639,253	607
639,443	646,78
639,632	608,12
639,822	643,45
640,011	561,99
640,2	652,67
640,39	690,25
640,579	632,9
640,768	656,97
640,958	620,31
641,147	630,75
641,336	561,02
641,526	641,91
641,715	579,96
641,904	570,49
642,093	578,84
642,283	529,74
642,472	544,64
642,661	555,75
642,85	535,22
643,039	537,67
643,228	554,77
643,418	586,93
643,607	568,19
643,796	555,49
643,985	537,78
644,174	581,24
644,363	547,76
644,552	565,53
644,741	551,14
644,93	529,48
645,119	485,55
645,308	589,9
645,497	533,42
645,686	535,06
645,875	482,74
646,064	557,64
646,253	543,36
646,442	541,05
646,631	559,48
646,82	490,42
647,009	558,2
647,198	540,54
647,387	482,12
647,575	511,15
647,764	519,14
647,953	562,76
648,142	499,68
648,331	458,88
648,519	555,9
648,708	489,85
648,897	490,57
649,086	494,92
649,274	466,66
649,463	489,65
649,652	510,18
649,84	495,48
650,029	496,61
650,218	492,82
650,406	481
650,595	462,87
650,784	428
650,972	469,68
651,161	468,91
651,349	438,86
651,538	471,78
651,726	462,92
651,915	453,81
652,104	441,21
652,292	460,26
652,481	441,78
652,669	395,7
652,857	424,73
653,046	484,94
653,234	444,54
653,423	430,36
653,611	459,24
653,8	393,04
653,988	422,99
654,176	399,13
654,365	447,05
654,553	427,75
654,741	427,59
654,93	433,02
655,118	424,32
655,306	400,25
655,494	434,56
655,683	403,12
655,871	402,3
656,059	386,43
656,247	394,93
656,436	371,79
656,624	386,23
656,812	429,39
657	374,71
657,188	412,44
657,376	395,65
657,564	368,82
657,753	387,71
657,941	358,94
658,129	401,18
658,317	359,5
658,505	359,14
658,693	389,81
658,881	340,15
659,069	338,56
659,257	360,73
659,445	353,92
659,633	389,2
659,821	417,1
660,009	328,88
660,197	356,27
660,384	342,04
660,572	330,06
660,76	330,42
660,948	322,12
661,136	358,58
661,324	322,79
661,512	322,89
661,699	338,05
661,887	332,11
662,075	350,74
662,263	354,23
662,451	369,43
662,638	329,45
662,826	347,01
663,014	359,14
663,201	342,76
663,389	304,51
663,577	312,24
663,764	297,29
663,952	344,75
664,14	304,51
664,327	294,43
664,515	308,91
664,702	261,91
664,89	262,02
665,078	353,77
665,265	281,11
665,453	307,99
665,64	293,15
665,828	312,09
666,015	357,76
666,203	308,86
666,39	322,38
666,578	336,77
666,765	396,72
666,952	313,73
667,14	347,47
667,327	324,94
667,515	291,81
667,702	306,61
667,889	286,44
668,077	279,37
668,264	297,39
668,451	259,25
668,638	266,83
668,826	289,82
669,013	231,09
669,2	260,48
669,388	284,29
669,575	294,78
669,762	256,44
669,949	289,41
670,136	443,88
670,323	249,11
670,511	227,3
670,698	273,59
670,885	256,38
671,072	265,75
671,259	244,81
671,446	236,57
671,633	248,35
671,82	221,52
672,007	186,75
672,194	207,18
672,381	244,2
672,568	212,15
672,755	163,36
672,942	211,12
673,129	247,68
673,316	239,9
673,503	193,1
673,69	286,28
673,877	281,22
674,064	267,65
674,251	237,95
674,437	235,24
674,624	245,68
674,811	269,75
674,998	229,76
675,185	185,47
675,372	223,05
675,558	214,55
675,745	239,69
675,932	188,44
676,119	158,95
676,305	184,45
676,492	185,12
676,679	184,71
676,865	206,26
677,052	210,56
677,239	195,71
677,425	201,55
677,612	163,76
677,798	146,56
677,985	181,68
678,172	172,47
678,358	125,83
678,545	183,32
678,731	146,56
678,918	129,56
679,104	153,93
679,291	115,28
679,477	152,3
679,664	122,19
679,85	167,09
680,036	173,9
680,223	139,14
680,409	119,63
680,596	153,01
680,782	139,45
680,968	101,97
681,155	142,26
681,341	167,4
681,527	154,29
681,714	161,87
681,9	120,04
682,086	161,36
682,272	158,7
682,459	149,12
682,645	117,07
682,831	160,13
683,017	129,26
683,204	102,74
683,39	122,5
683,576	128,34
683,762	101,15
683,948	126,95
684,134	96,49
684,32	127,57
684,506	115,69
684,693	183,32
684,879	120,04
685,065	147,23
685,251	177,18
685,437	159,87
685,623	191,82
685,809	200,68
685,995	208,46
686,181	164,94
686,366	169,5
686,552	139,04
686,738	132,02
686,924	98,95
687,11	105,4
687,296	111,49
687,482	177,08
687,668	193,61
687,853	157,37
688,039	147,07
688,225	120,04
688,411	136,12
688,597	150,86
688,782	132,38
688,968	115,28
689,154	120,91
689,34	143,34
689,525	84,3
689,711	137,35
689,897	68,18
690,082	127,62
690,268	152,35
690,454	70,89
690,639	116,71
690,825	105,4
691,01	143,13
691,196	127,16
691,381	120,55
691,567	144,97
691,753	160,95
691,938	104,48
692,124	149,43
692,309	150,09
692,494	148,66
692,68	169,96
692,865	186,91
693,051	139,34
693,236	137,09
693,422	115,59
693,607	160,64
693,792	145,33
693,978	157,83
694,163	303,79
694,348	603,57
694,534	1612,81
694,719	3204,13
694,904	5053,6
695,089	6463,98
695,275	7095,78
695,46	7010,74
695,645	6134,31
695,83	4822,69
696,016	3661,08
696,201	3006,29
696,386	2488,72
696,571	2166,12
696,756	1818,88
696,941	1560,27
697,126	1256,56
697,311	992,68
697,497	767,1
697,682	639,51
697,867	402,51
698,052	270,77
698,237	233,96
698,422	198,17
698,607	193,2
698,792	117,28
698,977	164,74
699,162	124,29
699,347	59,68
699,531	98,64
699,716	65,56
699,901	148,92
700,086	85,12
700,271	123,11
700,456	72,17
700,641	26,14
700,825	80,05
701,01	106,63
701,195	137,29
701,38	100,89
701,565	166,22
701,749	129,41
701,934	144,46
702,119	120,81
702,303	170,37
702,488	128,23
702,673	124,85
702,857	105,71
703,042	78,72
703,227	48,36
703,411	111,7
703,596	107,24
703,78	112,16
703,965	87,22
704,15	122,91
704,334	129,15
704,519	404,09
704,703	971,38
704,888	1815,14
705,072	2863,09
705,257	3618,53
705,441	3945,34
705,625	3907,45
705,81	3409,08
705,994	2666,54
706,179	2004,07
706,363	1719,86
706,547	1509,95
706,732	1293,83
706,916	1064,92
707,1	865,96
707,285	728,44
707,469	505,26
707,653	457,75
707,837	351
708,022	204,83
708,206	153,58
708,39	152,76
708,574	76,42
708,759	126,75
708,943	45,55
709,127	84,71
709,311	100,48
709,495	83,07
709,679	73,86
709,863	98,33
710,047	108,01
710,231	56,35
710,415	80,52
710,6	44,06
710,784	117,94
710,968	88,3
711,152	95,57
711,336	44,01
711,519	105,76
711,703	13,8
711,887	55,48
712,071	65,36
712,255	56,14
712,439	87,38
712,623	82,36
712,807	198,22
712,991	379,52
713,174	446,9
713,358	459,7
713,542	496,25
713,726	468,3
713,91	330,32
714,093	276,4
714,277	290,64
714,461	262,48
714,645	250,6
714,828	181,48
715,012	195,82
715,196	186,29
715,379	124,14
715,563	144,67
715,747	92,96
715,93	67,72
716,114	77,9
716,297	98,08
716,481	54,3
716,664	75,86
716,848	66,59
717,031	135,91
717,215	63,93
717,398	95,21
717,582	51,43
717,765	104,83
717,949	93,88
718,132	86,04
718,316	51,43
718,499	85,38
718,682	70,12
718,866	114,66
719,049	70,74
719,233	62,85
719,416	102,74
719,599	92,85
719,782	19,64
719,966	100,28
720,149	24,66
720,332	29,73
720,515	72,58
720,699	71,86
720,882	71,66
721,065	75,34
721,248	60,09
721,431	105,09
721,615	40,89
721,798	36,13
721,981	71,96
722,164	101,4
722,347	62,75
722,53	80,72
722,713	85,99
722,896	85,17
723,079	61,98
723,262	17,23
723,445	96,75
723,628	88,86
723,811	85,63
723,994	103,5
724,177	43,5
724,36	80,62
724,543	107,5
724,726	115,94
724,909	166,79
725,091	221,06
725,274	501,37
725,457	818,14
725,64	1188,98
725,823	1470,63
726,006	1586,08
726,188	1538,92
726,371	1327,42
726,554	1032,82
726,737	807,7
726,919	725,27
727,102	578,94
727,285	488,78
727,467	429,18
727,65	376,4
727,833	215,89
728,015	146,31
728,198	168,42
728,38	112,41
728,563	104,02
728,746	79,03
728,928	111,8
729,111	86,51
729,293	115,23
729,476	70,38
729,658	96,75
729,841	87,07
730,023	90,96
730,205	107,04
730,388	86,66
730,57	65,41
730,753	81,13
730,935	71,4
731,117	69,25
731,3	31,47
731,482	83,64
731,664	39,4
731,847	46,52
732,029	67,66
732,211	125,01
732,394	59,32
732,576	46,16
732,758	76,88
732,94	85,74
733,122	63,31
733,305	75,14
733,487	86,76
733,669	102,22
733,851	103,2
734,033	63,52
734,215	110,31
734,397	91,47
734,58	66,49
734,762	67,15
734,944	80,57
735,126	87,89
735,308	105,24
735,49	144,92
735,672	191,26
735,854	165,4
736,036	407,22
736,218	909,94
736,399	2185,42
736,581	3795,02
736,763	5461,76
736,945	6543,9
737,127	6905,93
737,309	6480,67
737,491	5447,37
737,672	4239,89
737,854	3358,29
738,036	2790,64
738,218	2276,81
738,4	1714,03
738,581	1267,26
738,763	833,5
738,945	571,41
739,127	395,34
739,308	329,5
739,49	224,95
739,672	167,66
739,853	136,48
740,035	127
740,216	41,4
740,398	93,78
740,58	81,03
740,761	86,25
740,943	143,49
741,124	106,32
741,306	73,19
741,487	90,4
741,669	95,57
741,85	106,47
742,032	86,15
742,213	94,65
742,394	78,62
742,576	109,39
742,757	48,72
742,939	71,09
743,12	79,7
743,301	78,42
743,483	83,38
743,664	70,48
743,845	56,09
744,027	61,88
744,208	52,46
744,389	51,79
744,57	127,11
744,752	62,6
744,933	57,94
745,114	60,7
745,295	80,26
745,476	110,31
745,657	59,22
745,839	74,88
746,02	66,03
746,201	83,38
746,382	115,18
746,563	63,98
746,744	71,4
746,925	111,18
747,106	133,2
747,287	40,12
747,468	91,68
747,649	70,63
747,83	142,16
748,011	298,73
748,192	782,92
748,373	1772,96
748,554	3113,66
748,735	4493,94
748,915	5266,59
749,096	5760,45
749,277	5980,51
749,458	6240,65
749,639	6566,59
749,82	7123,68
750	7353,26
750,181	7061,84
750,362	6375,51
750,543	5129,53
750,723	3784,42
750,904	2769,4
751,085	2038,78
751,265	1519,67
751,446	988,53
751,627	652,31
751,807	439,47
751,988	275,17
752,169	211,43
752,349	219,32
752,53	173,03
752,71	126,29
752,891	77,55
753,071	124,09
753,252	118,25
753,432	21,43
753,613	115,69
753,793	79,44
753,974	67,51
754,154	58,5
754,334	55,48
754,515	59,22
754,695	54,1
754,876	107,65
755,056	120,14
755,236	87,58
755,417	109,39
755,597	43,96
755,777	31,52
755,957	89,78
756,138	94,54
756,318	82
756,498	96,64
756,678	89,07
756,859	77,44
757,039	50,21
757,219	114,66
757,399	103,66
757,579	97,51
757,759	144,97
757,939	101,25
758,119	130,02
758,3	151,89
758,48	100,69
758,66	81,59
758,84	82,56
759,02	95,62
759,2	129,05
759,38	104,73
759,56	78,88
759,74	64,23
759,919	127,67
760,099	106,27
760,279	196,63
760,459	209,59
760,639	174,98
760,819	251,62
760,999	484,02
761,178	1830,4
761,358	5634,56
761,538	12682,9
761,718	21684,03
761,898	29624,67
762,077	34253,28
762,257	35444,17
762,437	32123,55
762,616	25138,95
762,796	17250,69
762,976	11716,46
763,155	7778,37
763,335	4817,83
763,515	3054,27
763,694	1996,19
763,874	1499,71
764,053	1397,46
764,233	2363,03
764,413	5331,81
764,592	10031,29
764,772	15526,96
764,951	19872,55
765,131	21675,42
765,31	21170,24
765,489	18270,62
765,669	13233,7
765,848	8813
766,028	5777,66
766,207	3728,61
766,386	2340,29
766,566	1543,89
766,745	1068,35
766,924	690,96
767,104	539,36
767,283	454,58
767,462	577,86
767,642	1338,89
767,821	3073,37
768	5897,98
768,179	9030,91
768,358	11337,12
768,538	12303,92
768,717	12045,62
768,896	10013,42
769,075	7182,72
769,254	4538,53
769,433	2979,01
769,612	1867,11
769,791	1250,26
769,97	1074,86
770,149	1613,93
770,328	3199,47
770,507	5788
770,686	8737,79
770,865	10809,87
771,044	11601
771,223	11106,78
771,402	8984,11
771,581	6418,06
771,76	3957,32
771,939	2457,85
772,118	1541,64
772,297	1003,59
772,475	682,36
772,654	469,12
772,833	332,52
773,012	279,68
773,191	226,74
773,369	198,63
773,548	146,05
773,727	100,18
773,906	70,48
774,084	100,74
774,263	85,28
774,442	54,56
774,62	58,5
774,799	82
774,977	69
775,156	73,91
775,335	92,65
775,513	108,06
775,692	87,22
775,87	45,24
776,049	73,96
776,227	96,8
776,406	84,87
776,584	40,02
776,763	54,71
776,941	114,15
777,119	56,86
777,298	91,06
777,476	67,72
777,655	48,62
777,833	21,43
778,011	68,48
778,19	108,73
778,368	165,97
778,546	135,3
778,725	159,46
778,903	145,38
779,081	64,54
779,259	92,14
779,437	35,66
779,616	54,51
779,794	108,37
779,972	47,7
780,15	56,55
780,328	43,29
780,506	44,88
780,685	55,07
780,863	109,39
781,041	43,7
781,219	23,22
781,397	27,93
781,575	70,48
781,753	55,89
781,931	28,5
782,109	41,3
782,287	79,95
782,465	43,86
782,643	52,1
782,82	81,13
782,998	13,9
783,176	56,4
783,354	86,71
783,532	63,16
783,71	56,35
783,888	35,46
784,065	59,57
784,243	27,98
784,421	66,23
784,599	72,07
784,776	81,8
784,954	47,49
785,132	96,18
785,31	60,5
785,487	47,03
785,665	69,51
785,842	59,01
786,02	70,53
786,198	119,94
786,375	43,75
786,553	24,86
786,73	29,42
786,908	65,72
787,085	106,47
787,263	110,77
787,44	77,39
787,618	109,44
787,795	79,9
787,973	67,92
788,15	88,25
788,328	74,22
788,505	53,02
788,682	90,55
788,86	78,83
789,037	33,21
789,215	74,12
789,392	81,18
789,569	34,33
789,746	47,75
789,924	68,79
790,101	18,87
790,278	80,72
790,455	31,67
790,633	49,44
790,81	51,49
790,987	35,15
791,164	34,44
791,341	113,18
791,518	76,88
791,695	96,28
791,873	106,22
792,05	107,24
792,227	102,74
792,404	213,48
792,581	763
792,758	1861,84
792,935	3266,8
793,112	4463,68
793,289	5129,78
793,466	5181,54
793,643	4599,41
793,82	3241,91
793,996	1945,04
794,173	1016,49
794,35	692,76
794,527	426,26
794,704	367,18
794,881	234,83
795,057	199,91
795,234	218,04
795,411	185,63
795,588	165,86
795,765	134,74
795,941	125,72
796,118	101,51
796,295	68,07
796,471	61,72
796,648	75,14
796,825	64,44
797,001	102,63
797,178	76,11
797,354	52,97
797,531	89,83
797,708	81,59
797,884	127,67
798,061	116,92
798,237	218,65
798,414	629,83
798,59	1349,13
798,767	2027,47
798,943	2768,17
799,119	3256,91
799,296	3911,8
799,472	4553,74
799,649	5105,16
799,825	5376,51
800,001	5397,71
800,178	5066,19
800,354	4070,83
800,53	2688,35
800,707	1489,06
800,883	903,59
801,059	583,24
801,235	438,24
801,411	377,68
801,588	304,31
801,764	236,01
801,94	231,5
802,116	185,73
802,292	189,93
802,468	125,37
802,645	139,96
802,821	118,4
802,997	112,41
803,173	85,33
803,349	140,93
803,525	102,48
803,701	135,45
803,877	123,93
804,053	92,09
804,229	87,43
804,405	132,38
804,581	68,28
804,756	110,93
804,932	120,35
805,108	133,97
805,284	94,19
805,46	89,42
805,636	158,7
805,812	102,68
805,987	112,77
806,163	106,32
806,339	110,47
806,515	117,48
806,69	108,32
806,866	99
807,042	116,87
807,217	150,91
807,393	146,97
807,569	167,04
807,744	212,1
807,92	484,73
808,096	1064,05
808,271	2162,84
808,447	3702,71
808,622	5015,4
808,798	5825,02
808,973	6223,91
809,149	6624,9
809,324	7604,8
809,5	10365,57
809,675	14229,73
809,851	17579,84
810,026	18613,81
810,201	17870,5
810,377	14651,86
810,552	9785,28
810,728	5357
810,903	3048,02
811,078	2082,46
811,253	1526,02
811,429	1138,24
811,604	967,03
811,779	736,89
811,955	617,08
812,13	522,98
812,305	427,13
812,48	419,15
812,655	319,56
812,83	265,29
813,006	277,27
813,181	246,04
813,356	231,71
813,531	262,27
813,706	298,67
813,881	280,91
814,056	255,82
814,231	356,53
814,406	348,34
814,581	299,7
814,756	353,3
814,931	353,51
815,106	419,1
815,281	365,9
815,456	491,49
815,631	769,76
815,805	1703,99
815,98	4480,42
816,155	10609,94
816,33	19864,51
816,505	30670,51
816,68	38536,91
816,854	42993,86
817,029	43212,22
817,204	42488,11
817,379	43215,4
817,553	50248,48
817,728	59094,22
817,903	61484,15
818,077	61760,27
818,252	62866,12
818,427	54696,26
818,601	34418,35
818,776	15661,72
818,95	9701,82
819,125	6850,95
819,299	4949,77
819,474	3747,61
819,648	2946,54
819,823	2267,59
819,997	1837,93
820,172	1393,01
820,346	1117,09
820,521	804,88
820,695	614,78
820,87	534,19
821,044	478,03
821,218	384,43
821,393	322,28
821,567	235,03
821,741	218,24
821,916	211,74
822,09	201,75
822,264	157,16
822,438	121,68
822,613	193,51
822,787	187,62
822,961	107,8
823,135	192,28
823,309	177,9
823,483	154,34
823,658	93,11
823,832	210,25
824,006	312,19
824,18	629,73
824,354	1174,18
824,528	1931,26
824,702	2604,07
824,876	2941,02
825,05	2979,67
825,224	2625,42
825,398	1922,46
825,572	1239,15
825,746	745,64
825,92	500,96
826,093	415,87
826,267	281,11
826,441	263,76
826,615	178,05
826,789	219,16
826,963	174,67
827,136	140,67
827,31	101,97
827,484	126,29
827,658	99,25
827,831	83,33
828,005	112,77
828,179	94,08
828,353	71,4
828,526	81,69
828,7	98,38
828,873	91,73
829,047	73,35
829,221	102,12
829,394	99,51
829,568	96,75
829,741	36,23
829,915	92,75
830,088	58,65
830,262	117,53
830,435	76,01
830,609	80
830,782	76,83
830,956	68,59
831,129	122,14
831,302	72,68
831,476	56,91
831,649	65,1
831,822	45,75
831,996	112,41
832,169	110,67
832,342	91,73
832,516	40,27
832,689	121,42
832,862	61,88
833,035	102,12
833,209	37,66
833,382	65,16
833,555	71,15
833,728	52,97
833,901	21,79
834,074	79,34
834,247	73,35
834,42	47,18
834,594	97,26
834,767	90,91
834,94	69
835,113	19,08
835,286	70,02
835,459	80,31
835,632	37,56
835,805	69,61
835,977	59,68
836,15	66,44
836,323	92,5
836,496	66,08
836,669	81,49
836,842	67,31
837,015	30,7
837,188	105,5
837,36	16,21
837,533	127,93
837,706	90,55
837,879	134,79
838,051	143,75
838,224	164,38
838,397	308,71
838,569	620,82
838,742	1135,58
838,915	1793,18
839,087	2398,1
839,26	2783,94
839,433	2970,2
839,605	2625,68
839,778	2175,08
839,95	1543,48
840,123	1255,69
840,295	1486,55
840,468	2105,8
840,64	2915,47
840,813	3689,65
840,985	4084,14
841,158	3876,63
841,33	3265
841,502	2358,32
841,675	1506
841,847	903,24
842,019	640,48
842,192	480,94
842,364	403,27
842,536	299,65
842,709	258,64
842,881	183,22
843,053	209,69
843,225	140,73
843,398	85,02
843,57	133,51
843,742	67,56
843,914	86,51
844,086	88,3
844,258	33,21
844,43	51,79
844,602	87,12
844,775	92,44
844,947	92,19
845,119	81,33
845,291	68,38
845,463	37,92
845,635	66,44
845,807	58,4
845,979	58,29
846,15	58,35
846,322	93,01
846,494	54,25
846,666	20
846,838	15,34
847,01	34,23
847,182	0,9
847,354	32,49
847,525	30,6
847,697	68,94
847,869	72,27
848,041	45,49
848,212	55,17
848,384	24,3
848,556	80,11
848,727	37,2
848,899	25,32
849,071	66,69
849,242	63,82
849,414	73,14
849,585	65,41
849,757	148,1
849,929	223
850,1	273,74
850,272	530,81
850,443	688,04
850,615	830,84
850,786	863,45
850,958	768,84
851,129	674,84
851,3	481,81
851,472	326,22
851,643	191,87
851,815	172,37
851,986	143,64
852,157	146,66
852,329	112,26
852,5	91,06
852,671	73,5
852,842	83,13
853,014	80,21
853,185	48,67
853,356	85,69
853,527	82,36
853,698	28,45
853,87	23,53
854,041	48,26
854,212	-5,14
854,383	34,49
854,554	45,8
854,725	56,91
854,896	35,1
855,067	52,71
855,238	20,51
855,409	58,09
855,58	44,93
855,751	33,92
855,922	68,48
856,093	63,11
856,264	64,59
856,435	78,57
856,606	87,07
856,777	3,61
856,948	40,17
857,118	59,01
857,289	18,72
857,46	41,19
857,631	71,3
857,802	20,1
857,972	78,67
858,143	40,99
858,314	1,67
858,484	77,34
858,655	13,96
858,826	20,15
858,996	31,11
859,167	40,53
859,338	53,89
859,508	37,56
859,679	72,32
859,849	22,15
860,02	52,15
860,19	40,84
860,361	58,96
860,531	12,78
860,702	42,22
860,872	64,23
861,043	28,8
861,213	40,73
861,384	46,26
861,554	71,5
861,724	45,24
861,895	3,1
862,065	11,55
862,235	44,11
862,406	4,79
862,576	49,23
862,746	89,73
862,916	20,51
863,087	50,87
863,257	19,84
863,427	64,85
863,597	8,78
863,767	66,44
863,937	70,28
864,108	23,99
864,278	74,42
864,448	67
864,618	49,13
864,788	67,2
864,958	59,68
865,128	127,67
865,298	123,16
865,468	171,19
865,638	111,49
865,808	143,34
865,978	100,94
866,148	80,26
866,318	108,88
866,487	59,73
866,657	69,76
866,827	68,28
866,997	72,58
867,167	44,93
867,337	71,35
867,506	40,07
867,676	40,78
867,846	73,81
868,016	11,34
868,185	36,23
868,355	4,13
868,525	35,82
868,694	16,98
868,864	30,34
869,034	10,17
869,203	15,7
869,373	60,19
869,542	62,19
869,712	21,58
869,881	58,45
870,051	-9,44
870,22	-7,45
870,39	23,33
870,559	67,87
870,729	-10,72
870,898	2,03
871,068	29,47
871,237	45,75
871,406	35,51
871,576	22,51
871,745	54,45
871,914	30,44
872,084	48,36
872,253	25,27
872,422	71,96
872,591	14,31
872,761	29,52
872,93	100,18
873,099	99,05
873,268	16,62
873,437	-6,11
873,607	-11,54
873,776	-11,75
873,945	-0,33
874,114	-22,75
874,283	13,9
874,452	16,82
874,621	19,02
874,79	-22,8
874,959	38,94
875,128	47,7
875,297	15,8
875,466	34,08
875,635	22,86
875,804	15,9
875,973	51,13
876,142	-0,74
876,31	71,71
876,479	0,85
876,648	69,3
876,817	47,49
876,986	37,76
877,155	10,06
877,323	34,59
877,492	16,77
877,661	3,41
877,829	31,72
877,998	29,42
878,167	24,45
878,335	25,27
878,504	6,02
878,673	-14,72
878,841	-13,33
879,01	38,84
879,178	22,15
879,347	57,42
879,515	-24,19
879,684	-9,65
879,852	54,51
880,021	36,28
880,189	39,76
880,358	56,4
880,526	-2,73
880,695	8,58
880,863	-1,81
881,031	-5,96
881,2	33,72
881,368	10,06
881,536	40,73
881,705	25,68
881,873	32,85
882,041	13,14
882,21	27,47
882,378	-14,82
882,546	60,04
882,714	3,77
882,882	20,87
883,05	50,82
883,219	10,58
883,387	52,97
883,555	-0,17
883,723	-14,2
883,891	-55,32
884,059	24,66
884,227	-2,94
884,395	39,15
884,563	-19,78
884,731	-0,99
884,899	39,5
885,067	4,89
885,235	33,82
885,403	41,6
885,571	11,24
885,739	46,11
